timestamp,x,y,z
1511948396240461,0.220215,0.743164,0.606934
1511948396256503,0.229004,0.742188,0.601563
1511948396280564,0.221191,0.74707,0.609375
1511948396295605,0.227051,0.736816,0.594727
1511948396318169,0.230957,0.737305,0.595215
1511948396345743,0.227539,0.741699,0.599121
1511948396355768,0.225098,0.737305,0.601563
1511948396375818,0.227539,0.734375,0.605469
1511948396423581,0.224121,0.741211,0.603027
1511948396424086,0.220703,0.739258,0.600098
1511948396436122,0.225586,0.736816,0.59668
1511948396458672,0.222168,0.741211,0.603027
1511948396473712,0.223145,0.737305,0.602539
1511948396497370,0.227051,0.746094,0.609863
1511948396541612,0.228027,0.736328,0.600586
1511948396542616,0.230469,0.73291,0.603516
1511948396563714,0.228027,0.742188,0.603027
1511948396579714,0.223145,0.73877,0.599121
1511948396594459,0.224609,0.743652,0.600586
1511948396623545,0.227539,0.746094,0.605957
1511948396646103,0.227051,0.739746,0.611328
1511948396662640,0.216309,0.744141,0.602539
1511948396675301,0.217285,0.743164,0.597656
1511948396698236,0.223633,0.739746,0.597168
1511948396714278,0.225098,0.73877,0.602539
1511948396735334,0.228516,0.737305,0.60498
1511948396758396,0.230957,0.739746,0.604492
1511948396774439,0.229492,0.736816,0.609375
1511948396796997,0.225098,0.739746,0.605469
1511948396818554,0.223145,0.740723,0.603027
1511948396834096,0.224121,0.740234,0.598633
1511948396855154,0.224609,0.734863,0.596191
1511948396878717,0.220703,0.745605,0.598145
1511948396902277,0.223145,0.744629,0.602051
1511948396940387,0.224121,0.744629,0.603027
1511948396942885,0.224121,0.740234,0.599121
1511948396969456,0.226563,0.746094,0.593262
1511948396975499,0.230469,0.742676,0.603516
1511948397000038,0.233398,0.739258,0.600098
1511948397014077,0.225586,0.746582,0.600586
1511948397036635,0.223145,0.737305,0.608887
1511948397051675,0.223633,0.740234,0.600586
1511948397074235,0.227539,0.744629,0.60791
1511948397096794,0.229492,0.749023,0.589844
1511948397113500,0.231934,0.753418,0.583496
1511948397134054,0.233398,0.73584,0.594727
1511948397156614,0.211426,0.751465,0.589355
1511948397180176,0.214844,0.736816,0.606934
1511948397202236,0.217773,0.726074,0.606445
1511948397216776,0.215332,0.755859,0.617188
1511948397256379,0.229492,0.732422,0.602051
1511948397260892,0.224121,0.727539,0.595215
1511948397285179,0.227539,0.756836,0.587891
1511948397293198,0.233398,0.73877,0.588867
1511948397315759,0.232422,0.739746,0.585449
1511948397336814,0.214844,0.737305,0.588867
1511948397359374,0.204102,0.737305,0.602051
1511948397374414,0.220703,0.744141,0.605957
1511948397405058,0.227051,0.750977,0.607422
1511948397426113,0.248047,0.766113,0.583496
1511948397442658,0.254395,0.759766,0.571289
1511948397456696,0.224121,0.751953,0.578613
1511948397480759,0.217773,0.75293,0.577148
1511948397495801,0.240723,0.742676,0.587402
1511948397532464,0.216797,0.75,0.608887
1511948397534903,0.213379,0.746582,0.61084
1511948397561975,0.217773,0.749512,0.597656
1511948397577517,0.210449,0.745117,0.593262
1511948397592056,0.212402,0.754395,0.588379
1511948397612768,0.223145,0.739258,0.591797
1511948397635768,0.226563,0.733887,0.594727
1511948397650334,0.224609,0.743652,0.590332
1511948397684398,0.219727,0.746094,0.594727
1511948397695927,0.213379,0.757813,0.603027
1511948397710466,0.224609,0.744629,0.589355
1511948397734530,0.210449,0.731445,0.600098
1511948397756088,0.215332,0.748535,0.604004
1511948397771629,0.222656,0.750488,0.592773
1511948397803714,0.228027,0.751953,0.59375
1511948397824270,0.224609,0.746582,0.59668
1511948397830284,0.223633,0.742188,0.59375
1511948397852846,0.225586,0.744141,0.601563
1511948397875906,0.222656,0.742676,0.602539
1511948397890449,0.225586,0.743164,0.598633
1511948397914100,0.230469,0.748047,0.599121
1511948397936212,0.224609,0.745117,0.599609
1511948397950205,0.224609,0.743652,0.596191
1511948397981811,0.220703,0.746094,0.59082
1511948397996318,0.22168,0.746094,0.594727
1511948398011861,0.216797,0.745117,0.599121
1511948398034421,0.217773,0.745117,0.603516
1511948398056106,0.222168,0.745117,0.601074
1511948398080042,0.22168,0.75,0.592773
1511948398101231,0.225098,0.746094,0.595703
1511948398119240,0.224121,0.748047,0.597656
1511948398130317,0.226074,0.743652,0.599121
1511948398152877,0.224609,0.74707,0.598145
1511948398175939,0.223145,0.744141,0.59375
1511948398190410,0.222656,0.747559,0.594727
1511948398215602,0.222656,0.742676,0.598633
1511948398236226,0.222168,0.741211,0.597168
1511948398250263,0.219727,0.75,0.591797
1511948398272755,0.219238,0.746094,0.598145
1511948398312429,0.221191,0.750488,0.59668
1511948398314867,0.22168,0.745605,0.591309
1511948398332982,0.223145,0.744141,0.592773
1511948398357982,0.220703,0.746582,0.59082
1511948398372019,0.224121,0.745117,0.59375
1511948398394589,0.223145,0.754883,0.601563
1511948398415135,0.217285,0.749512,0.589844
1511948398430304,0.218262,0.748047,0.595215
1511948398454739,0.217773,0.747559,0.59668
1511948398469278,0.227539,0.751953,0.594727
1511948398498354,0.224121,0.742188,0.593262
1511948398520915,0.21875,0.745605,0.595215
1511948398529438,0.221191,0.748047,0.585449
1511948398550501,0.21875,0.749512,0.595703
1511948398573054,0.224609,0.741699,0.592773
1511948398590601,0.224609,0.745605,0.594238
1511948398610654,0.224121,0.74707,0.595215
1511948398641259,0.220703,0.744141,0.595703
1511948398649256,0.22168,0.748535,0.601074
1511948398673347,0.219727,0.743652,0.597168
1511948398700918,0.219727,0.74707,0.594238
1511948398709416,0.211426,0.75,0.584961
1511948398738494,0.219727,0.748047,0.593262
1511948398761055,0.224121,0.756348,0.594238
1511948398775592,0.226074,0.74707,0.600586
1511948398806675,0.223633,0.737305,0.59375
1511948398814195,0.217773,0.743164,0.597656
1511948398829235,0.225586,0.754883,0.59668
1511948398853299,0.224121,0.748047,0.592285
1511948398881126,0.22168,0.74707,0.59375
1511948398889091,0.220215,0.748535,0.592773
1511948398918736,0.22168,0.747559,0.595703
1511948398949752,0.222168,0.744141,0.591309
1511948398952260,0.220703,0.747559,0.592285
1511948398978355,0.222656,0.745117,0.597168
1511948398992868,0.21875,0.744629,0.593262
1511948399015493,0.225586,0.74707,0.59082
1511948399030476,0.220703,0.753418,0.589355
1511948399053114,0.221191,0.748047,0.600098
1511948399069070,0.223633,0.743164,0.59668
1511948399090194,0.225586,0.748535,0.594727
1511948399121210,0.22168,0.748047,0.591309
1511948399129233,0.225098,0.746582,0.598145
1511948399150286,0.220215,0.743652,0.595215
1511948399172917,0.22168,0.745605,0.592285
1511948399189390,0.221191,0.745117,0.597656
1511948399211950,0.225586,0.75,0.592773
1511948399233072,0.223145,0.741699,0.597168
1511948399249048,0.225586,0.744141,0.592773
1511948399271609,0.226074,0.744141,0.596191
1511948399292672,0.224609,0.746094,0.589355
1511948399309208,0.223145,0.746582,0.595215
1511948399331768,0.224609,0.745605,0.592285
1511948399352833,0.22998,0.749512,0.593262
1511948399369368,0.220703,0.749023,0.597168
1511948399391929,0.216309,0.741211,0.596191
1511948399412985,0.217773,0.750488,0.595215
1511948399438553,0.217285,0.758301,0.595703
1511948399451587,0.224609,0.743164,0.59375
1511948399472644,0.226074,0.750977,0.593262
1511948399489187,0.229004,0.745605,0.590332
1511948399511747,0.222168,0.744141,0.586914
1511948399534307,0.222168,0.744629,0.595215
1511948399549347,0.21875,0.745117,0.595215
1511948399580932,0.219727,0.741699,0.590332
1511948399595972,0.21875,0.744629,0.59375
1511948399609508,0.221191,0.748047,0.59668
1511948399633070,0.21875,0.749023,0.595215
1511948399655630,0.221191,0.743164,0.592285
1511948399676685,0.220703,0.748535,0.59668
1511948399699247,0.220215,0.753906,0.591309
1511948399739353,0.220703,0.749023,0.592285
1511948399744867,0.217773,0.744629,0.597168
1511948399751886,0.222656,0.742188,0.597168
1511948399773009,0.225098,0.748047,0.593262
1511948399788484,0.227539,0.754883,0.601074
1511948399811109,0.222168,0.746582,0.597168
1511948399833604,0.213379,0.740234,0.594727
1511948399848709,0.21582,0.747559,0.596191
1511948399871203,0.223145,0.749512,0.595703
1511948399893764,0.220703,0.747559,0.59375
1511948399908803,0.220215,0.741211,0.594727
1511948399930869,0.225098,0.741211,0.595703
1511948399953425,0.225098,0.745605,0.597656
1511948399968522,0.220215,0.748047,0.59668
1511948399992526,0.217773,0.748047,0.595215
1511948400022105,0.219727,0.748535,0.597168
1511948400028630,0.223145,0.746582,0.600586
1511948400051189,0.214355,0.747559,0.59375
1511948400073742,0.220703,0.755859,0.59375
1511948400088808,0.227051,0.746094,0.593262
1511948400111342,0.228027,0.743652,0.591309
1511948400133460,0.217285,0.743164,0.597168
1511948400150004,0.223145,0.74707,0.592285
1511948400171061,0.223633,0.749512,0.594727
1511948400186623,0.226563,0.745605,0.594238
1511948400208734,0.222168,0.743652,0.595215
1511948400232243,0.217773,0.745605,0.59668
1511948400255809,0.217285,0.749023,0.601074
1511948400270848,0.221191,0.747559,0.593262
1511948400290929,0.22168,0.749023,0.596191
1511948400306943,0.217285,0.745605,0.59082
1511948400337524,0.217285,0.745605,0.589355
1511948400351190,0.221191,0.745605,0.592773
1511948400367609,0.222168,0.749023,0.59082
1511948400397684,0.226563,0.746094,0.595703
1511948400411220,0.22168,0.749023,0.594727
1511948400426763,0.224121,0.742188,0.595215
1511948400449822,0.223145,0.746094,0.589844
1511948400470878,0.219727,0.748535,0.599609
1511948400487007,0.22168,0.744141,0.587402
1511948400510068,0.222656,0.748047,0.592285
1511948400532627,0.22168,0.747559,0.590332
1511948400546666,0.222656,0.747559,0.594238
1511948400569751,0.222656,0.75,0.59082
1511948400591320,0.223145,0.744141,0.589355
1511948400613365,0.226563,0.746582,0.59082
1511948400629908,0.22998,0.743652,0.59668
1511948400651031,0.222656,0.748047,0.591797
1511948400681072,0.219238,0.742188,0.600586
1511948400690069,0.220215,0.75293,0.600586
1511948400718653,0.228516,0.746582,0.595703
1511948400726666,0.212402,0.747559,0.590332
1511948400750228,0.217285,0.749512,0.597168
1511948400771287,0.221191,0.749023,0.594238
1511948400787061,0.22168,0.750488,0.59375
1511948400810123,0.222168,0.743164,0.599121
1511948400831179,0.219727,0.745117,0.592285
1511948400853738,0.222656,0.75,0.599121
1511948400869781,0.22998,0.746094,0.59082
1511948400898364,0.224121,0.748535,0.597168
1511948400906880,0.21582,0.743652,0.596191
1511948400929943,0.221191,0.742188,0.598145
1511948400958581,0.219238,0.750488,0.599121
1511948400967096,0.219727,0.751465,0.595703
1511948400990157,0.21875,0.749512,0.594238
1511948401027321,0.220703,0.745605,0.588867
1511948401029761,0.225098,0.74707,0.599121
1511948401049815,0.222656,0.748047,0.591797
1511948401070870,0.224121,0.748535,0.592773
1511948401086913,0.219238,0.746582,0.595215
1511948401109474,0.220703,0.748535,0.595703
1511948401132535,0.219238,0.740723,0.591309
1511948401147073,0.22168,0.751953,0.595215
1511948401177654,0.222168,0.752441,0.592773
1511948401191190,0.21875,0.745605,0.599609
1511948401206733,0.21875,0.743164,0.594727
1511948401237313,0.222656,0.745605,0.587402
1511948401252354,0.225098,0.75,0.594727
1511948401274913,0.224121,0.745117,0.59375
1511948401305495,0.218262,0.748535,0.592285
1511948401314018,0.219727,0.742676,0.595215
1511948401327052,0.229492,0.748535,0.594727
1511948401349111,0.22168,0.747559,0.598633
1511948401378744,0.222168,0.748535,0.595703
1511948401386711,0.222168,0.752441,0.59668
1511948401409272,0.21582,0.748535,0.595703
1511948401432332,0.216309,0.751953,0.592285
1511948401453531,0.222168,0.752441,0.591309
1511948401477595,0.228027,0.746582,0.592773
1511948401492636,0.223633,0.747559,0.594238
1511948401506673,0.220215,0.746094,0.594727
1511948401536252,0.216309,0.745117,0.592773
1511948401552808,0.221191,0.741699,0.596191
1511948401567004,0.222656,0.745605,0.59375
1511948401589064,0.22168,0.737793,0.594238
1511948401620146,0.219238,0.748535,0.592773
1511948401626663,0.214355,0.745117,0.589844
1511948401649223,0.213867,0.748047,0.589355
1511948401679804,0.217773,0.750488,0.590332
1511948401688501,0.222656,0.744141,0.589844
1511948401709163,0.226563,0.742188,0.594727
1511948401732725,0.229004,0.743652,0.589844
1511948401762303,0.215332,0.75293,0.594727
1511948401769323,0.218262,0.751953,0.591309
1511948401792384,0.215332,0.753418,0.597656
1511948401814942,0.205566,0.747559,0.589355
1511948401829481,0.21875,0.759766,0.590332
1511948401853044,0.221191,0.75293,0.589844
1511948401873599,0.225098,0.746582,0.59668
1511948401897664,0.222656,0.750977,0.589355
1511948401920224,0.224609,0.746094,0.596191
1511948401933764,0.223145,0.748535,0.596191
1511948401964841,0.217285,0.747559,0.587891
1511948401972362,0.215332,0.743164,0.590332
1511948402001065,0.216797,0.73877,0.591309
1511948402009466,0.222168,0.751953,0.583008
1511948402032020,0.227539,0.747559,0.591309
1511948402053577,0.224121,0.751465,0.600098
1511948402068618,0.216797,0.755371,0.59668
1511948402091203,0.208984,0.749023,0.594238
1511948402115744,0.21582,0.751465,0.592773
1511948402136799,0.216309,0.753906,0.587891
1511948402142881,0.219238,0.749023,0.591309
1511948402174082,0.216797,0.749512,0.589355
1511948402196683,0.222656,0.75,0.593262
1511948402211156,0.224609,0.751953,0.591797
1511948402225219,0.223633,0.746582,0.598633
1511948402248255,0.222168,0.738281,0.592285
1511948402262858,0.223145,0.743652,0.594238
1511948402285353,0.22168,0.738281,0.594727
1511948402309918,0.21582,0.755371,0.588379
1511948402322979,0.213867,0.754395,0.592285
1511948402345513,0.223145,0.746582,0.589844
1511948402369135,0.226563,0.745117,0.598145
1511948402384115,0.218262,0.747559,0.59375
1511948402417204,0.214844,0.753418,0.595703
1511948402429236,0.212891,0.748535,0.597656
1511948402451294,0.209473,0.74707,0.59375
1511948402465361,0.214844,0.748047,0.593262
1511948402490216,0.222168,0.75293,0.596191
1511948402510840,0.220703,0.750488,0.591797
1511948402525372,0.224121,0.75,0.59668
1511948402548434,0.22168,0.74707,0.600098
1511948402562973,0.226563,0.742188,0.59668
1511948402595557,0.223145,0.743652,0.592773
1511948402625168,0.220215,0.746094,0.587402
1511948402627643,0.222168,0.752441,0.592773
1511948402645188,0.214844,0.750977,0.582031
1511948402668752,0.223145,0.750488,0.584473
1511948402690809,0.231445,0.74707,0.591797
1511948402705447,0.231934,0.743652,0.594238
1511948402728551,0.220703,0.75,0.597656
1511948402751144,0.208008,0.750488,0.595703
1511948402765620,0.204102,0.751465,0.599121
1511948402780660,0.210449,0.751953,0.604492
1511948402802719,0.220215,0.753906,0.598633
1511948402842325,0.217773,0.749512,0.594238
1511948402844832,0.223633,0.746582,0.585449
1511948402872496,0.222168,0.745605,0.598145
1511948402885530,0.224121,0.743652,0.597168
1511948402901573,0.225098,0.747559,0.599609
1511948402923154,0.224121,0.741699,0.594727
1511948402945690,0.216797,0.744141,0.594238
1511948402970259,0.215332,0.744629,0.595215
1511948402982914,0.220215,0.754883,0.583984
1511948403006861,0.229492,0.75,0.59668
1511948403046459,0.224609,0.750488,0.588379
1511948403050978,0.225586,0.746582,0.600098
1511948403073553,0.212891,0.746094,0.601563
1511948403082077,0.208496,0.746094,0.599609
1511948403104135,0.214355,0.750488,0.603027
1511948403125692,0.218262,0.744141,0.595215
1511948403141734,0.220703,0.746582,0.599121
1511948403179335,0.219238,0.744629,0.595215
1511948403185403,0.224121,0.75,0.600098
1511948403201922,0.219727,0.748535,0.602051
1511948403223003,0.221191,0.73877,0.603027
1511948403245537,0.216797,0.748535,0.601074
1511948403262080,0.217285,0.745605,0.598633
1511948403285643,0.218262,0.74707,0.591797
1511948403306699,0.223633,0.749023,0.595215
1511948403323243,0.224121,0.750977,0.595703
1511948403342796,0.210449,0.747559,0.595215
1511948403366860,0.214844,0.74707,0.601563
1511948403389424,0.21875,0.750488,0.604004
1511948403402955,0.216309,0.744629,0.598145
1511948403425515,0.220703,0.744629,0.596191
1511948403442062,0.219238,0.743652,0.59668
1511948403463116,0.223145,0.744629,0.597656
1511948403485287,0.226563,0.743164,0.594238
1511948403501764,0.223633,0.742676,0.600098
1511948403525827,0.22168,0.746094,0.59668
1511948403545406,0.220703,0.73877,0.596191
1511948403561924,0.225098,0.745117,0.593262
1511948403583046,0.219727,0.746582,0.591797
1511948403605541,0.223633,0.75293,0.602539
1511948403629603,0.219727,0.742676,0.592773
1511948403643140,0.214844,0.746094,0.592773
1511948403666702,0.220703,0.744629,0.59082
1511948403689262,0.228027,0.744629,0.592773
1511948403702799,0.22168,0.745605,0.599121
1511948403725359,0.218262,0.747559,0.599121
1511948403741903,0.217285,0.746582,0.595215
1511948403770980,0.219238,0.750977,0.598633
1511948403785518,0.21875,0.745605,0.602539
1511948403811110,0.220215,0.748047,0.59375
1511948403831139,0.219727,0.743164,0.601563
1511948403845244,0.220703,0.741211,0.592773
1511948403863225,0.224121,0.741211,0.599121
1511948403884280,0.225098,0.743164,0.59668
1511948403922389,0.229004,0.736328,0.603027
1511948403924892,0.215332,0.736816,0.599121
1511948403944517,0.217285,0.747559,0.597656
1511948403973593,0.220703,0.746094,0.594238
1511948403981614,0.230957,0.749023,0.598145
1511948404011200,0.224121,0.737305,0.603516
1511948404025230,0.224121,0.739746,0.599121
1511948404041774,0.215332,0.748535,0.601563
1511948404064476,0.216309,0.746094,0.596191
1511948404085575,0.220703,0.745605,0.606445
1511948404101617,0.220215,0.742188,0.595215
1511948404124178,0.221191,0.744629,0.598633
1511948404153756,0.225586,0.744629,0.594238
1511948404161778,0.229492,0.745117,0.595703
1511948404185842,0.223633,0.739746,0.600586
1511948404200883,0.226074,0.737793,0.603027
1511948404223442,0.219727,0.734375,0.604492
1511948404244498,0.219238,0.742676,0.601563
1511948404261058,0.220215,0.750977,0.597656
1511948404282697,0.220215,0.739258,0.60498
1511948404305758,0.219238,0.737305,0.604492
1511948404328317,0.223145,0.739258,0.598633
1511948404348890,0.22168,0.738281,0.605469
1511948404364915,0.226074,0.73877,0.593262
1511948404394001,0.22168,0.747559,0.598633
1511948404401020,0.216309,0.741699,0.597168
1511948404431091,0.219238,0.744629,0.604004
1511948404449641,0.219238,0.747559,0.606445
1511948404461178,0.216309,0.745605,0.604004
1511948404485236,0.214844,0.743652,0.598145
1511948404499775,0.220703,0.743164,0.600098
1511948404529853,0.225586,0.742188,0.595703
1511948404543390,0.223633,0.744629,0.598145
1511948404567454,0.22168,0.739746,0.59668
1511948404580997,0.219727,0.740723,0.604004
1511948404605055,0.223633,0.736816,0.604492
1511948404620094,0.223633,0.746094,0.606445
1511948404642654,0.220703,0.742188,0.598633
1511948404672325,0.219727,0.742676,0.593262
1511948404679840,0.224121,0.739746,0.600586
1511948404708543,0.219238,0.737793,0.599121
1511948404723521,0.213867,0.746094,0.604492
1511948404754539,0.20459,0.758789,0.586914
1511948404768613,0.22168,0.753418,0.606934
1511948404783723,0.22168,0.75,0.598633
1511948404800198,0.216797,0.744629,0.59668
1511948404821254,0.212891,0.73877,0.600586
1511948404843831,0.226074,0.745117,0.603516
